x,y,theta
0.05876397708263213,-0.13171720705404713,0.06349268166722366
0.8738487261712146,-0.049741204180565504,0.08499576067111514
1.3512345549005689,0.009738027599024408,0.09688729594952905
2.1469105734709553,0.07653416420447844,0.07796994544386582
3.001014347178026,0.21988998127052892,0.07313910652349298
3.3753474009429483,0.1852384016298332,0.059500377272598826
4.201720272349923,0.21823870801775525,0.08797110975519606
5.057407167402348,0.3254806172497056,0.07673855109152994
5.979805606453985,0.35051233416462313,0.062141630897530664
6.48237866144131,0.3553600519895294,0.15396854213197164
7.370748200375966,0.541894507223508,0.2894212250799231
8.141301740979204,0.8876737800639337,0.3845987326167153
8.593212955494332,1.1175847763161653,0.3621621259195531
9.429083478918766,1.4000766875295738,0.376108315020506
10.178064657062786,1.6886101138875462,0.3991478305094063
10.602757423014339,1.8327693639068057,0.36376204748441276
11.53825145749044,2.1278092901847407,0.35451077159986877
12.41064687858055,2.4386915527096797,0.34542521271381377
12.862537162292906,2.6718397366427986,0.3488590855964988
13.658058795679713,2.9521072989497914,0.6306072549691253
14.198054679280984,3.6335376847427243,0.8688018523694403
14.687436086506153,4.202131712829475,0.8718880352024758
15.004441345859572,4.547658032787992,0.850833622540383
15.656614491861223,5.28676749501285,0.8502666529829614
16.275540907555694,6.063097760419827,0.8725963947831934
16.45854344598543,6.413650046333769,0.901881218510721
16.953584927599344,7.094380126297062,0.8947437855013014
17.50106709504794,7.748543793904729,0.8637794736591067
17.75582236701059,8.07962618871921,1.2035249007148288
17.795074395729557,8.808313511677829,1.68756608936787
17.488981618456634,9.604314173561795,1.9544258355296735
17.296243016109933,10.103880667551133,1.9342787810163315
16.994531813452483,10.935715365700645,1.9279562523184222
16.66668674292876,11.83024090589599,1.904366159967993
16.44707908693604,12.195068106096999,1.904591868623446
16.139872826900234,13.114856224981567,1.9154786331683393
15.832379655938064,13.887658035808725,1.9365400515190787
15.497064956480676,14.75911923952891,1.938985799153853
15.297707124037155,15.1915923746693,2.510075582528234
14.342200391500155,15.590086506203608,2.7751190654023308
13.459784918992154,15.94936249428623,2.7704964751610808
12.914976955015513,16.18188213032752,2.8221984890648812
11.953605726277301,16.578333237012213,2.882155996278401
11.271737148958692,16.806247487553797,2.8585548598544914
11.020097324346134,16.970633494706004,2.8094602137244546
10.429237075297992,17.257678473770714,2.7896314210021753
9.758708848719298,17.5715396267802,2.749205583591232
9.54045087710145,17.75144517113524,2.7200096888596086
8.885365882651078,18.06154499398103,3.1203799637689267
8.128753668074953,17.72691871820463,-2.776890171758358
7.37827568399646,17.503155882021673,-2.796205426227887
6.8938555528808125,17.301642539060623,-2.780351689541066
6.072404075949812,16.950128788865072,-2.7151714256440687
5.2249961678452825,16.558243906013466,-2.706333475475424
4.711199655293765,16.380966016214895,-2.670171273149451
3.8516044364852626,15.97119061632541,-2.667900234549128
2.9914301566614974,15.559782437209199,-2.667604537993587
2.4462007613101697,15.329467132887647,-2.530911577295698
1.8159816716882615,14.838521833857047,-2.365165643150368
1.2395592752876794,14.201665836337376,-2.267869519031498
1.0363582087117613,13.966269031504,-2.2875371559261803
0.47038251765031935,13.333286547681336,-2.2712937612606354
-0.18104603361660287,12.606048987175305,-2.283182792358516
-0.8173830447867542,11.935966782746275,-2.309295227945053
-1.0873782071289853,11.699510543191636,-2.2780533674515446
-1.714786731651397,11.02832131512333,-2.268893064021641
-2.30969633346398,10.24522424713087,-2.240476835078349
-2.6552222020551044,9.823691937565549,-2.243363487397065
-3.259923405684478,9.07099105270621,-2.0963431273267172
-3.633578884303196,8.244160436183687,-1.806126580375253
-3.603895303840041,8.104069866456792,-1.6964390755109269
-3.597917642675023,7.474915446492833,-1.722798251867218
-3.6967005114909655,6.622519065815059,-1.6126055824585215
-3.5238973730691745,6.095643973751616,-1.6175636784304537
-3.623879855292014,5.185439865580648,-1.5928455640224528
-3.7279771695690207,4.158468991413346,-1.623627972887062
-3.7944037165856757,3.3992343154044216,-1.6272817078490676
-3.971025479151061,2.8061302592839503,-0.9558827220220345
-3.1192057523136176,2.2422199909452303,-0.6988291748071833
-2.646908623980633,1.8402590410181958,-0.5980594380265449
-2.3238334120394715,1.5347867222411729,-0.6734629864907857
-1.6185257237239696,0.8420655103141055,-0.6771211669039006
-0.8530655655017844,0.645294193113188,-0.7557523032237285
-0.7001906116516542,0.3965212975464968,-0.6691063745351382
-0.36555855167931384,-0.03818775673922139,-0.5575768589228649
0.6541513937859332,-0.47101155121861277,-0.4969965924494537
1.2041804198900607,-0.7631644511706621,-0.4663943615948498
1.866853389729639,-1.0465890624351253,-0.5233155155471412
2.4286093217642746,-1.4776353300480616,-0.4807072832363173
3.133934641684121,-1.891531578495775,-0.48490795432695766
3.487854987475178,-2.0784628902910565,-0.5058415127210538
4.22615280465246,-2.483823767319631,-0.499284122955312
4.933011746792321,-2.902068041072883,-0.5107218606142512
5.24481660906596,-3.077205199477443,-0.04090754471162139
6.096137715302715,-2.91864421060054,0.18837046601908192
6.943084085170928,-2.746068721111614,0.15961417283000312
7.320672037589409,-2.6925709550848196,0.1645356404234808
8.202388438384366,-2.561344427426006,0.16935020905577147
8.996008705105629,-2.363302935617856,0.18092056746076457
9.3142451243208,-2.2793626545111176,0.17272592592543257
10.251377544560631,-2.0992696260407837,0.15399634750366298
10.99640116456831,-1.972210356367961,0.18748423824948857
11.211317588534701,-1.9273927491610416,0.5159026737586601
11.767866648567491,-1.3921673941699861,0.6781796698479448
12.48954940485054,-0.783321125034777,0.6814314688599081
13.160346975714496,-0.2228053893074203,0.6767819326804183
13.275397256970747,-0.022132689822987647,0.7162397117736621
13.772372041110394,0.4914126341446981,0.7434490891555376
14.269503587956383,1.0523474756340312,0.7421767487080659
14.466430816857901,1.3776548142708909,0.7439210588766048
15.020506072744531,1.919664615263981,0.7221487033271092
15.391279705474822,2.438778243841685,0.7646711499900318
15.381051662941475,2.634672254430165,0.9543364571454882
15.615166475486983,3.3817684378226525,1.221576451336528
15.618531361566491,4.221773923010319,1.3106359250891266
15.591567913528644,4.715448441391188,1.2223063676318233
15.615712928931758,5.814462713964801,1.2231125117488402
15.659925861411686,6.975400917815035,1.1617451885428922
15.717537581845962,8.104344597332771,1.009590418677134
16.551271944049127,8.732056660404837,0.9883715648030762
17.567524816513203,9.568383830035685,1.0310284615105791
18.154728807071447,10.20537769932133,0.9697265059869968
18.56555551792552,10.499325318509893,1.2677751643931892
18.823903636947506,11.080027110664188,1.6949985736902509
18.72619781640774,11.549444080681939,1.9649576566490827
18.849525346673055,11.733167741662577,2.00210837601405
18.57705932732957,12.392140312442022,1.9838851755733682
18.324699051262222,13.112727662292627,1.9842432314938359
18.2983279024923,13.45916634974485,2.013262129316666
18.091435046754356,14.119820782530617,2.0394914281722887
17.795812650909998,14.737193100681585,2.056447900907938
17.546463058493416,15.248077702156374,2.0609264277483703
17.357960376632374,15.571596983609886,2.0679327535086767
17.020254839353385,16.239343277391576,2.288677292723108
16.427594325686755,16.64335160081225,2.686293449583144
16.042852008493533,16.702451370248955,2.9570728100334165
15.324318620105434,16.768300012611267,2.985700881462952
14.503022747625142,16.83159452294836,3.018115539700947
14.098522570111736,16.844706299589657,2.9895908049182314
13.321996678037987,16.98014092068449,2.9602269295871633
12.522210933046448,17.11130676962104,2.9450367973857015
12.216451363492412,17.160939911667207,2.926180495308518
11.471799157575987,17.29323563077247,2.906918161420484
10.771125364703174,17.43512619630734,2.8863148586266885
9.990328687756556,17.660682146182012,2.863539103329588
9.820106189610486,17.700356507773378,-3.0974360926227567
9.210487447283608,17.545554647489993,-2.6694097924137328
8.39701959157792,16.92060670646377,-2.367274524516023
7.9995137053805845,16.594685487200355,-2.3187529317356805
7.336904440229189,15.881089927526325,-2.2713936144617364
6.733864757944937,15.21456358906666,-2.2182178388943457
6.507711944148019,14.89008107210944,-2.1930606034680897
5.960776056886321,14.126189349484992,-2.220153337657216
5.447160205775617,13.3924669348719,-2.2124285941453774
5.18558376963799,13.016760062350901,-2.222759696674299
4.57882079697112,12.274119713537265,-1.959460669309335
4.51489922141333,11.558443815466218,-1.3053287809249368
4.962462914562906,10.719844108701054,-1.0597143823768205
5.167416287943944,10.347376827851555,-1.0325695607868148
5.599059735366213,9.581027018344512,-1.0541608401791045
6.038243697333981,8.769121804529894,-1.0564178937292343
6.237984353653227,8.324921325788731,-1.08162506743201
6.751696047042957,7.452650648990425,-1.093527246619371
7.193395291333141,6.572450467423611,-0.7528066298633416
7.717126665654066,6.565254890675852,0.025975323009463924
8.531880737146652,6.602688861946735,0.01820643159206181
9.374970310576353,6.666785322230312,0.07474828582604198
9.788292521418377,6.774478653021215,0.09220101461331787
10.691837914818523,6.9322591641329545,0.09046379413505701
11.569216701389763,7.102736157663891,0.1176792678300993
12.004616173691941,7.195406635502474,0.10750178761113638
12.858262140699908,7.282059980319843,0.12348865557676936
13.804457608547434,7.434855016571355,-0.3504703062622805
14.318624971790104,6.851904584321413,-0.8363923171855556
14.569642788236544,6.561828840525206,-0.8718773308488958
15.106287449781796,5.965710151075542,-0.856329431429371
15.878505153760077,5.324753542864053,-0.8136135793488002
15.959133259449873,5.215477770364417,-0.8011731263154651
16.69343224235918,4.5912817233648,-0.8649956051492849
17.122980995526934,4.140127093658973,-1.383597353844316
16.645634791126035,3.823024429634472,-2.500019803896156
15.778107637108656,3.2547454006277325,-2.4392724322600294
15.180926164139986,2.87607891723164,-2.381527988918977
14.917446754605043,2.5781026277858414,-2.509900149312927
14.357185278468256,2.1489993596118873,-2.4440955874670682
13.698067359603,1.5966159628776448,-2.371374334924805
13.075550541524217,0.9321149353877366,-2.428474727472636
12.865417789874165,0.6975892773055421,-2.7208528071299725
11.764792929858814,0.45946403784531314,-2.8870618161784565
10.748240191000004,0.09579706070133777,-2.993050552266149
10.031890534703436,-0.038170237520355685,-2.9334347250376416
9.500836958909481,-0.06871174424050297,-2.925468864210421
8.589457612044448,-0.40805985824809915,-2.92475960234444
8.089417258892485,-0.3895774559514048,-2.8480311737902584
7.193020577298945,-0.4877439721756668,-2.9297272017187184
6.2635586208025265,-0.6961044809723107,-2.9129794810644514
5.7443784068359385,-0.7860786941568395,-2.9487629710453356
4.926307939663959,-0.9670633748609279,3.1282836498126425
3.975353008322941,-0.7544159273407572,2.9270145658842965
3.1246417861138793,-0.5880059978444266,2.96470275984284
2.8002342312875386,-0.4935106744679246,2.968975131503953
1.9246670111180653,-0.30976734128290945,2.954499632018689
1.0270288150976807,-0.20106934492058604,2.929615249389979
0.5926263586783249,-0.09926412394010357,2.7570614442119528
-0.12564457305920113,0.2064409661984538,2.541123146691546
-0.8174998792266754,0.8130944009180432,2.42367771673361
-1.1867321883121669,1.140926994872449,2.4025795131438876
-1.7379577039750365,1.6151557226851898,2.3944612916682777
-2.3196919198208037,2.0917534572629966,2.4040040458495326
-2.6608248560646315,2.399608445009889,2.3971313751198906
-3.265640397332679,3.0326352472000457,2.428072966650566
-3.833315020113623,3.6106340462168274,2.4200587972377434
-4.392610808878996,4.141567413866371,2.3837303147828823
-4.717067282630674,4.495805413821678,2.044231963066684
-4.983841330657893,5.293919650666957,1.90385387446669
-5.230780528724661,6.096962193867808,1.9027702540452127
-5.333912999431632,6.45067399559782,1.8337354459185393
-5.506701741574172,7.335645913372834,1.8113241006962761
-5.595078479565486,8.186651584191834,1.7822840460688427
-5.622528707731536,8.642915967233755,1.7495420229208465
-5.73832106163345,9.545050042137184,1.7259747572053348
-5.784925150180286,10.346018931957259,1.6716947963551751
-5.780929192733943,10.643461318200766,1.6182899724154174
-5.735975971833178,11.319109860131718,0.991151342392877
-4.735637845963496,11.610881322658258,0.3498169766219008
-3.7421374298528436,11.988260743854156,0.3998747137589733
-2.636107440595599,12.08205490911396,0.4250914618974657
-1.2561283288261513,12.441604167394571,0.5464946103622919
0.03771749785454642,12.793280581930158,0.7642549685453357
-0.367822709740498,12.845121423711285,0.9429622962303732
-0.40981658162637774,13.39664530392467,1.069311418893859
-0.17766390506691201,14.262204570480767,1.1123138217131494
-0.1491267669568732,14.847408079554654,1.1369230629858151
-0.013674747925948657,15.842379706726476,1.107943926098411
0.20050636597986723,16.74671511249991,1.0129407976094367
0.21210950582008375,17.31733803688007,0.24233673004507184
0.814376597409345,17.321721955863357,-0.08826376318475182
1.5067457689504697,17.214085212224223,-0.09377479259713573
1.65702548873426,17.201042856924545,-0.09773085583825791
2.3372024585055113,17.10797496160273,-0.08963411315608782
3.0079067379821276,17.00802855209001,-0.11244323893927621
3.807436420518685,16.899858443292718,-0.1432475993337068
4.140325754464167,16.8038273138044,-0.15658404978245155
4.8310726270878375,16.645473765720574,-0.1791900792776393
5.583949139159456,16.417395474019205,-0.18386944298656083
6.020185727607943,16.274083668595992,-0.18153410780467416
6.853835995075192,16.077865192681017,-0.19918410890850913
7.738790733415915,15.906716644397994,-0.376616785585683
8.018616744846032,15.575176470257444,-0.7387638171085484
8.655827134305609,15.018437904109692,-0.7543924531295403
9.348090344645792,14.437402098845931,-0.7607203907157452
9.6446972026238,14.125395960045742,-0.7835552660516116
10.250590572738059,13.477322592913808,-0.780809642483046
10.909691553890584,12.806947396164428,-0.7941190574546777
11.55850452908993,12.232142233383579,-0.7762315581990267
11.882016744812878,11.919902164693852,-0.7643294763478656
12.474689471082264,11.372537308131552,-0.7398767134883708
13.067918030546517,10.859740261462745,-0.7203103791488048
13.414021007745431,10.579775418997166,-0.7275627507435458
14.03142955382958,10.011870813011017,-0.7385933395752211
