x,y,theta
-0.06106692642718906,0.0728784884360845,0.04507469379527507
0.7829864475405878,0.12432945242377028,0.06081115785282565
1.2887461484107614,0.15694955515706624,0.06916318762253493
2.1127528179481696,0.1864652042520058,0.05029388014658265
2.9977678775563663,0.29066876494601207,0.04958813384299354
3.3985566693150058,0.23175675834861337,0.04156963556812521
4.26222453144227,0.23509639775514002,0.07362518707415111
5.15541728991116,0.31584790591810263,0.06998163081424069
6.096846497880548,0.34134538967372396,0.06152766461384074
6.618324800505173,0.3524917452035757,0.1586773300833868
7.525366608654673,0.551047546244253,0.2983990758364534
8.3278903552677,0.9138676410000439,0.3949829696833187
8.811615205376329,1.1605005423012624,0.37438047830516163
9.67842954718657,1.4648403856914316,0.39042732238936173
10.457503698870358,1.7760361075470097,0.4159469555304276
10.867707049483998,1.8941021446205881,0.3860746537530817
11.81312941721766,2.216205559569704,0.3750091249256733
12.695842137522204,2.5510773398572026,0.36427914263703887
13.160247327712199,2.7987854344129994,0.3663316917598256
13.967792762991548,3.0990218548046555,0.6468559395047322
14.51180497044222,3.7975456457697985,0.8848716068833866
15.035727022733306,4.40932600832515,0.893945480169573
15.323915567868484,4.758632174880809,0.8771146071401779
15.934923796400387,5.511282681991233,0.8770186686869161
16.491452999628443,6.254703980499841,0.8915774070069631
16.626703995373784,6.558936911669721,0.9126267474363425
17.09921334607935,7.2356978758320905,0.9038233116806325
17.62540283047028,7.8855146052626015,0.8698613231098182
17.862304050919867,8.208774959037237,1.2059585963204498
17.89385623676434,8.914596153570855,1.6863140206209568
17.589464108690223,9.68691171895127,1.9485458848499446
17.40974308017248,10.172321450282842,1.927667494779791
17.123365719510836,10.990875452013835,1.9215456742865973
16.811017064487014,11.872239095625975,1.899153643569969
16.602805698176926,12.22301586112964,1.9008612384706618
16.308545688979887,13.128760342173415,1.9142946636214155
16.032718403620972,13.881336581339816,1.9355023744317688
15.729654656509581,14.732053176342081,1.9433690878345242
15.559990539271059,15.142528027561358,2.5224149915611545
14.651396553156772,15.506330260640073,2.7968900610747998
13.820534710283079,15.830439995781303,2.802986184071939
13.384172333860173,16.000092402116405,2.8614881959118765
12.525121877722125,16.317923745717355,2.926711270241186
11.76154494755122,16.512520018547814,2.9126615906437507
11.43003544652147,16.660034684577667,2.8708891787567996
10.753245960375814,16.90795376196286,2.8541195367965724
10.035033777958871,17.156918586223696,2.8256164468625578
9.776916590044785,17.297495826775588,2.8056829229585887
9.113782569265528,17.487018790282537,-3.0675180582225012
8.376376599013495,17.02415818941337,-2.683409385183257
7.76640454932377,16.730121436946742,-2.714535205684108
7.4228819563907935,16.480211387698233,-2.682284506998082
6.758024950737683,16.04089654184345,-2.6133143843290965
6.0654277432568025,15.556304126342642,-2.6143702154613395
5.681438591487835,15.324102063883231,-2.594627328464889
4.965532986216697,14.842228486650987,-2.6228155488785245
4.362998316810081,14.370732177702683,-2.692103994778013
3.683086579600717,14.223375404826282,-2.6057619678588546
2.904680862683625,13.854050374790285,-2.4639710203372114
2.177978321119116,13.361872354425795,-2.36284379810084
1.8767340982148097,13.243588240727272,-2.369277770919837
1.2500824006326061,12.742291070760341,-2.3783170425418807
0.5131479844762334,12.170850671177032,-2.3987339162693577
-0.2089165727267754,11.65869349215266,-2.4173842023006418
-0.5864672969624822,11.41754004675316,-2.3758179214521444
-1.3571857799122438,10.775531874959396,-2.3487743600919426
-2.053817841816218,10.017529701427431,-2.3212629372510523
-2.4725036426843117,9.600178549110192,-2.3230507577468797
-3.1755039321928247,8.87297598506441,-2.171533755053545
-3.645488327156397,8.05165580366015,-1.8725675295929973
-3.6516239648313125,7.889548498858821,-1.7530724524253267
-3.6801614802614733,7.337324197492596,-1.7780659201093034
-3.8237387742036035,6.567236282456617,-1.6636814017996637
-3.680627738903417,6.110405371536929,-1.6646170606663664
-3.825730779211746,5.283992128689877,-1.6329509980481844
-3.974581175152149,4.340496801055982,-1.653663849889986
-4.0722179007239205,3.6879287561679703,-1.6547219721149986
-4.255610575063723,3.232460955632452,-0.9857431389178162
-3.390494469980987,2.584525196071259,-0.727142171724275
-2.894508408125679,2.1196863467452687,-0.6229279028606243
-2.543287980434941,1.7606469606258404,-0.6937133378088203
-1.8397575925786291,1.024104962766082,-0.6982113193960315
-1.0662328163975354,0.781469392619659,-0.7740026168602774
-0.9051420274988644,0.49797391412209047,-0.6838923680509188
-0.5644057784233625,0.028710192575546873,-0.5673329881787561
0.4746594268318641,-0.415993089753452,-0.5032136059830772
1.0332705149227928,-0.7075262015038164,-0.4700751606848286
1.705753396444314,-0.9894254588590191,-0.5260444455814319
2.2764608447480814,-1.4179219375857617,-0.48416315907164664
2.991024289288269,-1.830267988397557,-0.4909730786135378
3.3603077788911113,-2.014697656682371,-0.5127356026158769
4.105025180518354,-2.4168285234959876,-0.5067528609526595
4.838424241484857,-2.854153991010977,-0.519321348132622
5.178248240258573,-3.0459956984896137,-0.05082341158301773
6.062725595958255,-2.9012697109836623,0.17868308567498525
6.940923064845747,-2.7382684216872026,0.15173532051129923
7.350416733860968,-2.68969726094335,0.15804807658081277
8.264401131056598,-2.5660064991781835,0.16580567633171972
9.090094909908423,-2.372395933595189,0.18199436729972174
9.43947059934025,-2.289360195622762,0.1791090193253715
10.406774952538973,-2.104456665940749,0.16745256594541358
11.190687775754595,-1.9682276566425392,0.20531476481969024
11.44505649628564,-1.9194229899279223,0.5384742307350918
12.022686064712971,-1.366682723482151,0.7085167393943466
12.754877527514909,-0.7302009556592239,0.723090227809807
13.431322452822608,-0.13535201258533855,0.7330007966015053
13.45505756526439,0.043052647073524394,0.7920301451592078
13.837284510655703,0.5675672747677997,0.8327952792810822
14.211621437476317,1.148107777963196,0.8382005751761472
14.306521386672953,1.4694744406241154,0.8432046524985877
14.734767632600775,2.043038622206658,0.817656706235729
14.961694014289483,2.5743409843854863,0.8821339300901689
14.84454006677558,2.7564408080989424,1.0919986140146811
14.907111683544137,3.537431298243522,1.3661689706667826
14.731704945500274,4.404952576722978,1.4475664086925262
14.579476306995613,4.930412162729154,1.3420810849337084
14.443116479123415,6.111074624598367,1.3502663828962564
14.312364900147609,7.361626939165738,1.278016601148976
14.21012096219007,8.568217794776443,1.0976250292821792
14.939023433500836,9.220857062118574,1.0547674129351368
15.855592281951068,10.097431449309397,1.0665455118238567
16.42891489575333,10.792603886027681,0.9776219299565092
16.85429831156433,11.136169691621934,1.2480017362462146
17.140348863386432,11.776440251531769,1.6492961991861588
17.06702979988124,12.326131317144593,1.8981073182517845
17.196828244663703,12.577538879336634,1.9164608931084013
16.90811151423826,13.416884185406625,1.8701227149980282
16.85223121296255,14.017660471392297,1.8542417475234538
16.98260171372603,14.223580799072085,1.8726120171516447
16.984615151727844,14.765616728151715,1.8998299434732964
16.89548175937093,15.275273957249905,1.9276070043586682
16.783061123747906,15.74125957486501,1.941996788916308
16.704355005386144,16.010921163049353,1.9618128112469133
16.510590690309172,16.635173434756,2.202153015515316
16.044780086561836,17.00985239520298,2.621225507987859
15.781051954483267,17.030869668647938,2.912277320827771
15.104259729346486,17.09817612520872,2.9567333479937234
14.32098000470941,17.1556092037877,3.0000028734093966
13.950591669586828,17.147388188560804,2.9798533255352755
13.209276019152552,17.26095594191876,2.9541909246561753
12.444671672480586,17.366696729669833,2.9378151281057114
12.15765348371238,17.409053586995082,2.9243745536301144
11.43131747000247,17.53291192909904,2.90942837676313
10.74815541319122,17.6629668711244,2.892101703036519
9.983806367539982,17.873620416510406,2.87151194805739
9.790907465729168,17.940214590986525,-3.098453871650156
9.162832486831084,17.81879104750557,-2.6731712583265543
8.299488309952194,17.250673364293426,-2.3629807472227067
7.849000972524937,16.830350862733738,-2.3102876630099956
7.139098342587779,16.014955989681113,-2.264868120520955
6.492455174996005,15.271598256653279,-2.216689672004008
6.2066456186377525,14.870419187761698,-2.19356067084246
5.600308944658275,14.029714614999321,-2.221860532110894
5.025051735737143,13.22066825965926,-2.2144902750698345
4.7026659914442455,12.769057680388345,-2.2246986267374176
4.117144086557383,12.073656809549002,-1.9586598560067274
4.04858169300336,11.378021024010506,-1.297432124052195
4.488683332925255,10.572099592445273,-1.044020037699057
4.680266590085242,10.23131025369913,-1.008760569043241
5.110213204621229,9.503459647863854,-1.0216790164791627
5.556002545108956,8.734220848077761,-1.0146442785488645
5.723074493150909,8.34338822012774,-1.0277759414146646
6.325965493550672,7.491018973709988,-1.0360608329248917
6.860091394679558,6.628820776832778,-0.7001367281879491
7.441787561473277,6.634798364883781,0.07313638876170625
8.33795373689572,6.72060416957389,0.059526086691275015
9.235527687645947,6.840059529350097,0.1258913343153707
9.70335287973509,6.99195666835454,0.1509195396419405
10.658076799876367,7.226820865217975,0.15263814039897827
11.535274926375642,7.447141128906653,0.1847039243996753
11.975904327867092,7.564662227623823,0.1800057491955389
12.854708355790777,7.727905345563634,0.20155375307182677
13.820358535943699,7.969621010367042,-0.2691910420348145
14.406565986494336,7.437893042904547,-0.7556870147335633
14.694910621003068,7.178542743138574,-0.7936310897260288
15.290435271978492,6.6363536865859984,-0.7842912838357314
16.18990137129319,6.0546577730435756,-0.7324826905060853
16.352336786732543,5.989924467951299,-0.70544721114099
17.21902192571833,5.474568025762924,-0.7742379131689292
17.757177983007857,5.104473426580046,-1.310759696793198
17.352226599712328,4.848557306632531,-2.4437936272501077
16.752095430218397,4.455545614186992,-2.379167152610844
16.405623548929547,4.274978013486834,-2.3112538072272923
15.96243937289272,3.732829413775493,-2.430360835509618
15.223065385832175,3.0505799276984433,-2.360539248775037
14.404658042330695,2.224804375171942,-2.2879957411927965
13.714712241833395,1.3670173520475062,-2.343012850952564
13.39596582276527,0.9759717874004848,-2.633562457303035
12.176796685724792,0.5325886477071201,-2.811283932108612
11.047658851466412,0.0030424547362438645,-2.9394524540674722
10.226593553854858,-0.16353065917381096,-2.8956633331668225
9.633500399361068,-0.20643060113121442,-2.910121617128228
8.662920865611504,-0.5518948856846968,-2.9249434779699373
8.09752886529804,-0.5252265394609572,-2.8614732556837583
7.13693345881104,-0.6050714389873058,-2.9516762219729364
6.136385037889803,-0.784292851318221,-2.9377572396267277
5.545099042283532,-0.858874854413229,-2.97864089110061
4.720058117903142,-0.9991930485410101,3.0968661720839314
3.7694042972138955,-0.7405120065422046,2.897900501701897
2.9051995755017392,-0.5318484995371446,2.9371980828800606
2.5654299935019105,-0.41157487007073,2.9442170347325494
1.6624212172848154,-0.1878131736662088,2.936916428279437
0.7346672164904458,-0.04489106329782914,2.9223912175351643
0.26894288527961574,0.0786880214340189,2.7616935471285267
-0.4672119172253262,0.3728069275125834,2.554726841497926
-1.1792122348082186,0.9604534567497323,2.4426589158184164
-1.5942899442259826,1.2854604325642327,2.4311434481894523
-2.1980264026231415,1.7478545262472587,2.4282778622789927
-2.8345909594426884,2.2085570629904563,2.438679430415302
-3.2256261783785756,2.508510816698694,2.4298674742442063
-3.8899532083195254,3.1254674650343564,2.45339841938472
-4.445405243652099,3.6762040455543747,2.4443408112311573
-5.013145014377869,4.175677853425384,2.4131167275693945
-5.343481275823579,4.502005561486669,2.0774624602881264
-5.632415517027887,5.266629309479534,1.939508950185373
-5.904824190859852,6.033980529650788,1.939474111147499
-6.069836907477519,6.362652232544071,1.8956839121705933
-6.344960782169616,7.208995428712773,1.8854784938148796
-6.510059564964751,8.074671632120953,1.8671699704059135
-6.589619434380109,8.5494791862451,1.844394876926284
-6.803409705335412,9.458073588535802,1.829219130691496
-6.983832290728665,10.214477314940261,1.7851583932408142
-7.064947878585889,10.468940409030287,1.7361445430924825
-7.1514004120187975,11.098367101792824,1.1018930135734166
-6.275238605367754,11.414161506178512,0.45136705532539745
-5.262017380671482,11.879488200706769,0.5034758674259288
-4.380710171680261,12.014346419446063,0.5088257726170129
-3.2347432959708877,12.425355196006358,0.589051837010135
-2.1261540904441696,12.78743902325536,0.744078515511144
-2.7407584680512116,12.750922440473074,0.8579656873779871
-2.956932653805228,13.150996627787453,0.9282809199717974
-3.0495230839266974,13.56516304135444,0.9758073426078511
-2.818194547932368,14.099472876592845,1.0211218451700486
-2.442878812765362,15.034926775870096,1.0433865017191364
-2.0295189192103686,15.91077353984827,1.028017990741521
-1.8560075495087933,16.5147636901184,0.3517256941522606
-0.9858107435202959,16.68982242405248,0.018230463274820696
-0.015126881020825645,16.704318324003925,-0.001485758606163401
0.4056036631806222,16.748906846993272,-0.023427664590600195
1.374601943815611,16.72046605843825,-0.03847205271726484
2.333223244688406,16.66473356093494,-0.09001043001570252
3.2455168107644146,16.586291900880397,-0.1157723689238983
3.69028489449947,16.509758720770186,-0.12678501544342602
4.4942760275657125,16.381774593881147,-0.15209794132558052
5.36087508334974,16.18237202663207,-0.16566037504313957
5.907149145897481,16.054252574842806,-0.17599900520876544
6.749520359204833,15.874518987954415,-0.19115982328085934
7.65850852589456,15.704260879986338,-0.3654070740880666
7.9642789751216485,15.367242898723585,-0.7248767732711645
8.628133898464386,14.80699702403825,-0.7385289990731203
9.348327205306475,14.224519050654864,-0.743581397028275
9.680677121434194,13.887142445278698,-0.7568379715984666
10.333825422761738,13.22478669901423,-0.7442206463898824
11.005900371665643,12.613910950312288,-0.7520822951975514
11.667113407320281,12.102109961680124,-0.7330365985252727
11.992751022021073,11.838759039240468,-0.722116062059293
12.624749929602347,11.330134156016422,-0.6861908739809084
13.262338958206595,10.862474273819998,-0.6594979450732614
13.643241465702875,10.61617404212839,-0.6620878636812031
14.314853121803196,10.102020672355112,-0.6731184540959836
