x,y,theta
0.05876516554439,-0.13171834953778147,0.06349275690170586
0.8738498436399066,-0.049742285650839775,0.08499585299360568
1.351235597797334,0.009736995747904582,0.09688740478341762
2.1469115361249345,0.07653322846029306,0.07797006656124594
3.0010152157036045,0.21988916278333456,0.073139234394477
3.375348193488841,0.1852376497110992,0.05950050955313557
4.201721016525412,0.21823807266727485,0.08797124242780185
5.057407851484912,0.3254801039830721,0.07673868032345244
5.979806243275575,0.35051195054842277,0.06214175320564852
6.482379251546122,0.3553597411190332,0.15396865455218967
7.370748719929426,0.5418943094472637,0.2894213238677552
8.141302220023285,0.8876736513240998,0.38459881745708424
8.593213392764335,1.1175846900259088,0.36216220029774826
9.429083893267995,1.400076647775094,0.3761083711250808
10.178065017015696,1.6886101298787075,0.3991478776395634
10.602757791483134,1.832769375829219,0.36376206828073165
11.53825175177093,2.1278093648289302,0.35451080294215664
12.410647289100238,2.438691523334107,0.3454251947678637
12.862537357688035,2.6718398736245637,0.34885912366505556
13.658059327351046,2.9521071361990225,0.6306071894751422
14.198054750981617,3.633537905303964,0.8688018922601328
14.687436689187855,4.202131428706587,0.8718879618303959
15.004441455697956,4.547658221900116,0.850833658762939
15.656615114267156,5.28676722712573,0.8502665924673445
16.27554114129917,6.063097801861072,0.8725963993627284
16.45854403968759,6.413649761036945,0.901881155971175
16.95358526370728,7.094380040957913,0.8947437824248201
17.50106772585986,7.748543396576781,0.8637794219172621
17.755822856251072,8.079625902105592,1.2035248880111977
17.795075007363064,8.808313050217752,1.6875660757435238
17.488982235392438,9.604313645987526,1.9544258463131143
17.296243739730812,10.103879983175922,1.9342788086049207
16.994532598497496,10.935714517866481,1.9279563091557632
16.66668756793084,11.830239902458969,1.9043662504652588
16.44707995292145,12.195066943087712,1.9045919964735685
16.139873650662622,13.114854900619441,1.9154788026553788
15.832380458339934,13.887656416464175,1.9365402585518572
15.497065692807976,14.75911732963892,1.9389860462246675
15.297707853719059,15.191590198651298,2.510075873302135
14.34220116065426,15.590083910430085,2.7751193829575236
13.459785712728216,15.949359518598609,2.770496809494851
12.914978141016018,16.181878514049007,2.822198767621596
11.953607236846027,16.57832893766735,2.882156149529834
11.27173867007339,16.80624293354184,2.8585549815533966
11.020098853756092,16.970628788991213,2.809460290831609
10.429238597018676,17.25767362993447,2.7896314387370076
9.758710623064454,17.57153445381249,2.749205455669582
9.54045290831487,17.751439745520567,2.720009401380011
8.885367762621906,18.06153991284294,3.120379601662349
8.128755194369168,17.726914028382044,-2.7768905703366484
7.378276966695189,17.50315159774633,-2.796205828307294
6.893856674263503,17.301638492488493,-2.7803521192565874
6.07240494188355,16.950125186858525,-2.7151718714746984
5.224996830226725,16.558240733007416,-2.7063338864089492
4.711200112986479,16.380963226589984,-2.6701716654795185
3.8516047790450565,15.97118817629214,-2.6679005147198143
2.991430323610739,15.559780525443495,-2.6676048402141856
2.446201262517325,15.32946519165079,-2.530911748350355
1.8159817320883826,14.838520591971394,-2.3651658986622337
1.2395599084545061,14.201664221483519,-2.267869569323057
1.0363581833181958,13.966268435327658,-2.2875373388415636
0.47038351459431427,13.333284952115987,-2.271293611928692
-0.1810461881803243,12.606048871100935,-2.2831829739709826
-0.8173818023532949,11.935965285790212,-2.3092950615601575
-1.0873781386927315,11.699510527730355,-2.278053473304735
-1.7147853468300835,11.028320033875112,-2.2688928424824275
-2.3096958287026785,10.24522410096877,-2.2404768116605984
-2.655220682218791,9.82369082544309,-2.243363235723971
-3.259922296077989,9.070990577136671,-2.0963430076959946
-3.633577167233101,8.244159454759814,-1.806126385112974
-3.603893677694791,8.10406910947246,-1.696438907896559
-3.5979157393975183,7.4749144535102126,-1.7227980677291002
-3.696698386080843,6.6225179272563794,-1.6126054242372292
-3.523895063185662,6.095642687204947,-1.617563551459478
-3.6238773526749304,5.185438410519809,-1.5928454945674497
-3.7279745223649043,4.1584673708683875,-1.6236279843388184
-3.794400942424331,3.399232361765341,-1.6272818220247014
-3.9710227509986322,2.80612819477951,-0.9558828214367705
-3.1192030057362965,2.2422177159701477,-0.6988292529358295
-2.6469058456643477,1.8402566408161365,-0.5980594927707448
-2.323830607171472,1.5347842418249285,-0.6734630166685323
-1.6185226447857586,0.8420627510545121,-0.6771211561430612
-0.8530622121308685,0.6452912060581089,-0.755752238664468
-0.7001870048792126,0.39651809633601365,-0.6691062610114078
-0.365554674552896,-0.03819110369623114,-0.5575767014373691
0.6541559013153359,-0.47101513042389703,-0.4969963573303686
1.2041859162525248,-0.7631684907141215,-0.46639399315489705
1.866859872762812,-1.0465933969537877,-0.5233149959829859
2.4286168566394024,-1.4776399038698338,-0.48070661661663827
3.1339432311316413,-1.891536151140064,-0.48490713703573807
3.487864831647581,-2.078467749816024,-0.5058405563420423
4.226164465627,-2.4838286660794497,-0.49928312842911016
4.933025272167598,-2.902072969676455,-0.5107208468690718
5.244831667624527,-3.0772105057410086,-0.04090652327305522
6.096153946366126,-2.9186489032689695,0.1883715601235858
6.943101263004953,-2.7460725695571506,0.15961539874441533
7.320690771631911,-2.692574360956817,0.16453672834140942
8.202408525341207,-2.5613469038677628,0.16935120467207954
8.996029954995388,-2.363304670110408,0.18092152887564783
9.314267502369534,-2.2793641527364774,0.17272687307272783
10.251400833444222,-2.099270379584539,0.15399734415039656
10.996426891502624,-1.9722105014637588,0.1874845805608647
11.211345667202835,-1.9273930534286676,0.5159023565873904
11.767896494021963,-1.3921679915025873,0.6781788889743754
12.489580877432156,-0.7833226905608831,0.6814304432959393
13.160379906476951,-0.22280814521392273,0.6767809158414844
13.275434795630098,-0.02213436799333224,0.7162373175789072
13.772414618036503,0.4914107529267906,0.7434456930373159
14.269551335643946,1.0523445077757023,0.7421727478106916
14.466482610245292,1.3776512065782345,0.7439166639823132
15.02056264283453,1.9196583099992093,0.7221442718214104
15.391345748794723,2.438770959001336,0.7646648825628257
15.381125098766692,2.634665609991332,0.9543287335005619
15.615250378379463,3.381758312600885,1.2215680457302236
15.618624752960816,4.221759446650724,1.3106277165321742
15.591667621009453,4.7154293236194125,1.2222987321863918
15.615819706183114,5.814436958303732,1.2231031416726363
15.660042720091747,6.975365805075558,1.161736633710749
15.7176615947604,8.104301131366004,1.0095835617330549
16.551406258334527,8.732013031692063,0.9883651772710973
17.56766810451465,9.56833643213547,1.0310246688048421
18.15487330621724,10.205327445600728,0.9697260279957147
18.565695789671,10.499276540731346,1.2677780450275922
18.82403856254186,11.079981693636544,1.6950036659354293
18.726324554407277,11.549404435081964,1.9649638151222941
18.84964247425268,11.733135537440164,2.002115154062638
18.577169007789283,12.39210850735491,1.9838935132463549
18.32479898935958,13.112696504812465,1.9842526490172565
18.29841948171529,13.459138520920176,2.0132723120518623
18.09151375474146,14.11979504580625,2.039501633085221
17.795878268174878,14.737169122021331,2.056457332825838
17.546520287271033,15.248053656357015,2.0609354929533463
17.358010550894875,15.571574092089815,2.0679411438112485
17.02029472999853,16.239320936124226,2.2886844223432083
16.427625129445122,16.643329033791034,2.686299024378875
16.04287413303862,16.702429993649478,2.9570768065142374
15.324338113143536,16.76827762549573,2.985703507287564
14.503039639830522,16.831571948943093,3.0181171341101667
14.098537012411631,16.844685154153296,2.9895915613743664
13.322008461491741,16.980121488527942,2.96022723080931
12.522219975401477,17.111289608913,2.9450370694870225
12.21645936525781,17.160923745890965,2.9261802141148436
11.471806109416688,17.293220896799358,2.906917525177793
10.771131247551912,17.435113261324812,2.886314071458445
9.990333508620749,17.660671294566118,2.863538406219101
9.82011011265622,17.70034701939546,-3.0974367097893434
9.210491406430947,17.545546290504998,-2.669410405066933
8.397023700097849,16.92059958769677,-2.3672751627649196
7.999518170101871,16.59467961429091,-2.3187535521560267
7.336909000895446,15.881085529827262,-2.2713941390799266
6.733868838930262,15.214559864985421,-2.218218277517513
6.507715904708677,14.890077636091068,-2.1930610792301395
5.960779653632939,14.126186379639362,-2.2201538181093428
5.447163425743056,13.39246441973663,-2.2124290425206548
5.185586776578553,13.016757877676202,-2.222760090458118
4.5788234545878,12.274117975497237,-1.9594609620833079
4.514901655663537,11.558442259618548,-1.305329048742971
4.962465027157313,10.719842660827846,-1.0597146204193746
5.16741816047233,10.347375570412392,-1.0325697654288843
5.59906128017299,9.58102592633509,-1.054161005108711
6.038244928869393,8.769120908887523,-1.056418011006996
6.237985461299276,8.324920519248769,-1.0816251524034826
6.751697007786417,7.452649914784019,-1.0935272966505583
7.1933961283615995,6.572449835573775,-0.7528066408311838
7.717127389475491,6.565254367442106,0.02597534438212623
8.531881349228241,6.602688405393859,0.018206473532725198
9.374970876725977,6.666784915975479,0.07474833509056644
9.788293037637505,6.774478282746904,0.09220106916939264
10.691838375253234,6.932258859905499,0.09046384896933057
11.569217105349793,7.102735918875995,0.11767931778090368
12.004616523473992,7.195406436029244,0.10750183019451898
12.858262484368206,7.282059830722694,0.12348870253938404
13.804457940916908,7.4348549254637755,-0.35047025884037897
14.318625316758897,6.851904536566733,-0.8363922709201823
14.569643127987698,6.56182883470407,-0.8718772864581847
15.10628779633449,5.965710201091363,-0.856329390680548
15.87850552163539,5.324753654935183,-0.8136135387077457
15.959133622140847,5.215477926025799,-0.8011730804581498
16.693432619418967,4.591281955140428,-0.8649955568132435
17.122981378232993,4.1401273892781285,-1.3835973066363603
16.645635181979774,3.823024757535104,-2.500019754780621
15.778108110943975,3.2547457498443224,-2.439272368054975
15.180926711619293,2.876079291031877,-2.3815279057619425
14.917447372520563,2.5781030445292377,-2.509900045856418
14.357185980334918,2.148999772174999,-2.444095460325885
13.69806816343716,1.5966163430604787,-2.371374180190886
13.07555153342975,0.9321153158355227,-2.4284745185527377
12.865418908104225,0.6975896995701897,-2.720852543851266
11.764794177594853,0.45946422978687335,-2.8870614898959444
10.748241606437169,0.09579696664545236,-2.9930501561589384
10.031892047988556,-0.03817057505859045,-2.9334342547264427
9.500838799861404,-0.0687122704931587,-2.9254683767185123
8.589459913616391,-0.4080607663229978,-2.924759106032731
8.089419823777513,-0.3895785479762723,-2.8480306674145672
7.193023436549632,-0.48774544065506215,-2.9297266834498124
6.26356180666726,-0.6961063623757217,-2.9129789491081364
5.744381972234034,-0.7860808382431661,-2.9487624289553844
4.926311930385677,-0.9670659540009624,3.128284186542838
3.975357188204626,-0.7544190369774195,2.9270150972265814
3.124645722068089,-0.5880095007710917,2.964703243818323
2.8002379307670706,-0.493514259783635,2.968975569703634
1.9246706041905237,-0.3097713168144313,2.95449996299271
1.0270323090722282,-0.20107359699717997,2.9296154752016212
0.5926297346319228,-0.0992684235315816,2.7570615677319283
-0.12564132938177183,0.20643665143175444,2.5411231732250554
-0.8174967696077345,0.813090199859701,2.4236776495832064
-1.186728908630488,1.1409227012500307,2.402579330654766
-1.7379542190789499,1.6151514534031817,2.394460987263006
-2.3196882106791934,2.091749316072503,2.4040036193586065
-2.660820962652487,2.399604424373126,2.397130828253921
-3.2656361476654783,3.032631540747123,2.4280723134494284
-3.83331003561809,3.6106303773618573,2.420057942647291
-4.392604859275467,4.141563706119786,2.383729177176197
-4.717060495664854,4.495801605010051,2.0442305869013104
-4.983833103740444,5.293915724092999,1.903852315507783
-5.230770702112098,6.096958297056294,1.9027685624246233
-5.333901274128512,6.450669824846369,1.833732926097496
-5.506686394242358,7.335641942329864,1.8113209593021864
-5.595059038157049,8.186647605210789,1.7822803970407994
-5.622506410640535,8.642911800696277,1.749537821171332
-5.7382943694697195,9.545046475829066,1.7259699272163944
-5.784893710379146,10.34601613824386,1.671688701738261
-5.7808956261667195,10.643460816635558,1.6182838748322848
-5.735936772498791,11.319107179517637,0.9911465817378344
-4.735598318470353,11.610867792778041,0.34981508465863786
-3.7420891117733013,11.988246112627829,0.39987293744170316
-2.6360350153161436,12.08204638218976,0.42508470651076413
-1.2560537688534865,12.44158566723778,0.5464820492493256
0.03777957267517849,12.793237519695905,0.7642422385753815
-0.3677465548347962,12.84510626106278,0.9429562912193905
-0.40972535886314293,13.39664794848373,1.069316381453949
-0.17758435577333131,14.262200500389383,1.1123221786849893
-0.14905988928675876,14.847387186656201,1.1369293840892203
-0.013611178600670694,15.84235611210128,1.1079461863437068
0.20057520121000064,16.746701245638857,1.0129411758676294
0.2121797838457023,17.31733223721924,0.24233650761284453
0.8144333643952262,17.32171552941274,-0.08826269473019721
1.506790955819306,17.214081107479686,-0.09377280295283796
1.6570634978591958,17.20103938177213,-0.09772855060212038
2.3372333419038718,17.10797332008661,-0.08963184835120552
3.007928233075799,17.008028967393496,-0.1124410811820944
3.807455730098201,16.89985983183647,-0.14324609706782265
4.140342902287192,16.803828848127317,-0.15658306435973124
4.831087835069455,16.645475774029155,-0.17918943581388946
5.583962314213055,16.417397770750004,-0.1838689519279253
6.020196523051189,16.27408595370777,-0.18153363777555764
6.853845931727393,16.07786767444754,-0.19918394596987854
7.738800114668335,15.906719311044556,-0.37661680260947206
8.01862550470818,15.575179187023007,-0.7387639956945806
8.655835272931931,15.01844059531926,-0.7543927486978395
9.348097721713293,14.437404707743577,-0.7607207426768201
9.644704225467127,14.125398535582635,-0.7835557107360636
10.25059702887646,13.477324983369947,-0.7808101457484895
10.909697390815882,12.806949536398783,-0.7941195809261723
11.55850976647791,12.232144114131096,-0.7762320612666693
11.882021495483178,11.919903961540802,-0.7643299334093312
12.474694042591816,11.372538839421201,-0.7398771740035146
13.067922410332384,10.859741525151753,-0.7203108455184624
13.414025273852872,10.579776527029045,-0.7275632216578538
14.031433543397876,10.011871636835346,-0.7385938115282582
