x,y,theta
0.0725795874077206,-0.1368042444712414,0.06407400045849077
0.8869281600377391,-0.05450426347885975,0.08560301940856485
1.3635873530699791,0.005106034557980786,0.09753335212229919
2.1585291675147142,0.07225253590659944,0.07867743612020917
3.0118437010477086,0.2160573407428967,0.07392693770799985
3.3855185371031578,0.1815478753074905,0.06038476866466569
4.212032520876003,0.21511252774719164,0.0888357353382152
5.0677891715272185,0.3229298340433908,0.07762436326317257
5.990413666019274,0.34860975121002025,0.0630929156354334
6.493235427968746,0.3537650558715944,0.1550090178041188
7.38163823338756,0.5410626555195195,0.29059824170373183
8.152876833843996,0.8875491710142759,0.3859273669679997
8.605489301835362,1.1178867512256934,0.3637180137469924
9.44194846214584,1.401501376738174,0.3780118544191442
10.191397252493166,1.69128653320624,0.40151182239747696
10.616840692104127,1.8363164785557435,0.36664805392654465
11.554084116500938,2.1365215050132904,0.35744424508324757
12.4281557417457,2.452404053189104,0.3480751743784851
12.882018831714772,2.689170025248328,0.35107469767837873
13.679532882960299,2.973630788706981,0.6320881241444898
14.221294363970577,3.659071687532135,0.8694523364572166
14.707121523481131,4.226639386227395,0.8707892991736221
15.021503254492298,4.570682923550951,0.8477930279925339
15.672878403855682,5.30667295050931,0.8448803603662798
16.295308699441403,6.0740047808021895,0.86659871276823
16.47971347056227,6.417665361731008,0.8955735630499584
16.97987611404755,7.089057757752826,0.8870192353573021
17.53323162539974,7.732803382792763,0.8556790782399171
17.791568461879134,8.055845645772406,1.1955545589175767
17.837538572697227,8.775741764921685,1.680279514695302
17.54053927202621,9.563050511542338,1.948036511387155
17.36013912940933,10.0464852054568,1.9266659582198153
17.073655610322977,10.863206476178307,1.9196848614736535
16.76202295038162,11.743016595719471,1.8960381661086227
16.553979533625203,12.09225259279064,1.896306773651764
16.262925906062737,12.997147311363124,1.9079065945883595
15.982287420105061,13.736104835458919,1.921065615632637
15.681821025268137,14.576242442381352,1.9175022338099064
15.513006619911915,14.976327142516665,2.483431479246862
14.602433863978762,15.370361138137167,2.741458080639413
13.768213221731447,15.735979594654204,2.728079225620844
13.346383184378531,15.907875821898145,2.7377768393082764
12.530768790769605,16.30018918020492,2.747627384897269
11.723031300339185,16.656172851068902,2.7727083166602924
11.32325327196844,16.8740570727316,2.7683635528097685
10.583368515424604,17.214026517360942,2.7861965548207843
9.771491025496404,17.548430621419417,2.773789103679425
9.409184603128347,17.739252172575686,2.7689654670193704
8.648182057254449,18.01445330293147,-3.1004316782007777
7.802624213417227,17.60903279814401,-2.7010599492871705
6.958916670916432,17.27453987997608,-2.7083031270469586
6.530718023205421,17.06661581121433,-2.7192511628517244
5.770744280909567,16.700687937044716,-2.6771206927385736
4.9792709597094005,16.313614830184203,-2.687592095654441
4.5105628006759755,16.163182990900022,-2.668216131859048
3.6946510298432593,15.788960130602208,-2.679023039589554
2.839623426880488,15.40748862797488,-2.678062872372521
2.317873782321171,15.198215184749404,-2.5402024519999045
1.7079321899799642,14.730747297457906,-2.373295509482021
1.1491436312306376,14.118450486714261,-2.275330210011893
0.9654936000172075,13.905401033227575,-2.294514761069558
0.4086625701091569,13.287354179768716,-2.27594802811393
-0.2327765566433947,12.57423892586611,-2.2862550302236246
-0.8576815134294574,11.917196665128124,-2.311437042130448
-1.114680429718848,11.692117123710776,-2.279465681449461
-1.7298593554938837,11.032745042680864,-2.2702269083588646
-2.3135264010026995,10.261827173692136,-2.2427556041065673
-2.648005559922232,9.852535835248334,-2.246963438172099
-3.2433888521842333,9.1134010395665,-2.1018976695600866
-3.611099304667716,8.300257174480288,-1.8146158773352874
-3.5749327931085326,8.170696872371968,-1.7081655648276244
-3.5795102800276664,7.529650642386749,-1.7303251229976782
-3.6879342603772005,6.666071766976664,-1.6155996583467922
-3.518965199737758,6.126825642695329,-1.6155462511228555
-3.619227901479007,5.20447223753457,-1.5855160160459931
-3.717546825862422,4.164779244907021,-1.610672653741055
-3.780285491916134,3.4006808513583415,-1.6134648273813068
-3.949676598157795,2.799282262065089,-0.9454287232198091
-3.0916898341351127,2.2403379740972196,-0.6911101629670902
-2.616359371495864,1.8390801062596416,-0.5927165074991692
-2.2920277003001077,1.5327696976514216,-0.6702495541174893
-1.58188998738473,0.8387057986575719,-0.67453468509837
-0.8133439046792377,0.6403162368826378,-0.7534446245251232
-0.6573626779585374,0.3880700776292024,-0.6670651992560321
-0.3192871900736109,-0.04950675650922559,-0.5557209598875841
0.7074340249325389,-0.4851856856672662,-0.4947742596919138
1.2686631223398714,-0.7822023793588222,-0.4638063275719615
1.9427073787859117,-1.0697911916608012,-0.5202158198663058
2.5162722752395172,-1.5053497569704015,-0.4771839053186593
3.233659943897351,-1.9227310796637909,-0.48092811307724936
3.6069929983620015,-2.118292688271238,-0.5018906762887578
4.372346808499741,-2.5337839241529263,-0.49868197039226914
5.106069936850695,-2.9651833964401093,-0.513676023034729
5.443860348047638,-3.155125697352009,-0.047448752488348234
6.3237031201286555,-3.00812013558458,0.17990765078773174
7.19738531378409,-2.845349228017687,0.150924759086021
7.615060239743453,-2.7993535666192386,0.14740761996125862
8.538477520761981,-2.687732458821387,0.14618535690332246
9.375990708136355,-2.5127745581751952,0.15425293962415187
9.73566901872069,-2.441914505001117,0.14362169912098643
10.717123464142704,-2.2940034925392014,0.1252038221593783
11.553957677773303,-2.1953641524543404,0.14054769491147434
11.857750966358443,-2.1676852482551907,0.45188060280057485
12.518801644520485,-1.6670158695348443,0.6041133183182379
13.345597645936925,-1.1106741314483877,0.6056422285567074
14.118744463659542,-0.6001151858337875,0.6069462345172263
14.403589170179648,-0.3801528097404961,0.6104395562515181
15.104041315067668,0.10069902630227874,0.6156035534972157
15.817678290254017,0.6131577815762913,0.6073148623507452
16.20592335965101,0.9274486647416648,0.6104389032394746
16.97630998968645,1.4095326908240529,0.6048727289327496
17.720165974942116,1.9332318080819149,0.6118198678448703
18.045174773130967,2.1696635719528987,0.7750419475340382
18.665507583352646,2.8906057666239073,1.052570990358494
19.00814996310156,3.710196812394117,1.1914853686379416
19.225284608737425,4.186227981706295,1.1760736741581184
19.553848024418116,4.994076956108898,1.141951797658617
19.93532634891735,5.84926417122393,1.1408259854107694
20.284685232645003,6.725111273640633,1.142080478290426
20.459747439368495,7.158220582005725,1.1686379887201683
20.74463941078998,7.826818782492744,1.1498069919816336
21.083669952380436,8.615656589653648,1.1459427159285234
21.256844886342474,9.038292630263065,1.4781868423592304
21.217287438441776,9.796027626489282,1.9083175467922198
20.786469147007484,10.464727404645034,2.1641667317041513
20.56730183723725,10.924473949299992,2.176447063695319
20.0760648811544,11.639976994019763,2.1564406242365237
19.583744359900805,12.43276490793917,2.148277080800783
19.382072696063343,12.89759611150582,2.164447791554415
18.95721079864421,13.647994218265747,2.1713255573533896
18.4614969397255,14.351510862565567,2.1642548353606497
18.087655972057377,14.908902585858074,2.151933278720632
17.800373197794737,15.291740354209608,2.140981869622273
17.345426106316097,16.012393384566533,2.3407076843680628
16.651311192441806,16.460366890737177,2.718632285909033
16.171333057381315,16.562318960373677,2.9724778393750206
15.390769234159077,16.65161100280134,2.988316579774735
14.509513577207343,16.74691035537901,3.0137891364193985
14.046545632037112,16.79502457678627,2.981338538549343
13.211891743395858,16.971595447153778,2.9531659001254127
12.352893092497544,17.14435602615222,2.9444839960529805
11.96413244362056,17.2365629923631,2.936785483904643
11.134127926660812,17.4035649242844,2.933882878536253
10.344720355063556,17.568916306447363,2.934392848523176
9.467446130420953,17.79854908611919,2.9374828782637543
9.159402763743765,17.87817442764023,-2.9922249687915747
8.361479071157781,17.679796159329378,-2.4869425181796965
7.740491046625389,16.959104429209745,-2.216187217944761
7.44604786527591,16.620346705877125,-2.200693114438514
6.920615920494762,15.8749440864518,-2.1903183279761342
6.411747418699065,15.20061696668557,-2.16523601399928
6.213988523074858,14.88433672752016,-2.1471028011986566
5.713468688712131,14.11598306694479,-2.1807880110506916
5.240212645718772,13.382104440290995,-2.179263831470641
5.002332063502875,13.0173986213438,-2.195604192996052
4.426415026129272,12.27732894128132,-1.937622014160565
4.380111445094284,11.576683672139312,-1.2809930129531384
4.843380579006937,10.767212259349648,-1.0334505356337322
5.051304418272347,10.416593969047087,-1.0046200530346447
5.4972697191446676,9.67866493640452,-1.025088151811968
5.953085557299732,8.89609044562293,-1.026785712164064
6.150069814703517,8.494197534632493,-1.043052625068114
6.680694738015604,7.679755406418794,-1.0473651902352827
7.146172042916235,6.858180054934344,-0.7000715086112224
7.649480615996656,6.90812247177857,0.08307308701524851
8.451677902006216,7.007891532488218,0.07611387856892327
9.294182328732182,7.081914034025784,0.10750122997121503
9.703075873868416,7.163917528826871,0.10406208112432536
10.601356467809545,7.293097775198894,0.0907381367177873
11.4739733895154,7.425691471256406,0.11512613141750494
11.90320016570359,7.47883145413457,0.10647856490105845
12.764535519174167,7.547292923403239,0.11456484275531142
13.718868575283697,7.674211504352119,-0.36269112723793784
14.243434170175338,7.062053775091929,-0.850154721450938
14.509711034556455,6.733190549220618,-0.8863286422195875
15.056574974311772,6.093122745236262,-0.869604060257501
15.830644286485748,5.421290716441009,-0.8251096774869731
15.912806188911276,5.300136526096211,-0.8117111449951784
16.643280720063203,4.65739343252078,-0.8731157704290737
17.07202097549736,4.191273534799466,-1.3884257346804667
16.59365316714299,3.8606649495599528,-2.502327316724175
15.712689927143964,3.2841254350229323,-2.438566423358967
15.103920710946873,2.8941399798106846,-2.3781621703868745
14.850067390133985,2.604834867118368,-2.5037658585505844
14.301414000666986,2.180909601587845,-2.4348653856569205
13.656087127410384,1.631468773065538,-2.358715827406956
13.046347804283457,0.9613523035318517,-2.4171743315119607
12.843412424321876,0.7266776899898577,-2.7110322023417153
11.750598045002496,0.47947396608618803,-2.878776546625615
10.742833400397263,0.10864608360475994,-2.9864361968558084
10.03326000930389,-0.02909342347396028,-2.9285009982504455
9.504770385677837,-0.061194224651163726,-2.9214705154345104
8.597149862153195,-0.4031209713497112,-2.9216091137697884
8.099434723110452,-0.3851601411103817,-2.845634948400827
7.205664930098039,-0.48430190758497815,-2.9279453197282463
6.278931974781706,-0.6932884421993062,-2.911692368110435
5.76331636754647,-0.7826143938640513,-2.9480426711535226
4.948963089280572,-0.9629331648602093,3.12854633650619
4.001370198269968,-0.7497408869018203,2.927102701962802
3.1452575329160353,-0.5802294701351206,2.964463478672247
2.8155653105622402,-0.48262712912915157,2.968577396507883
1.935929299767523,-0.29544083670729604,2.9544242848487166
1.0341250177489272,-0.18353819723335368,2.930465178927742
0.5954208358808969,-0.07889766387138249,2.7591208269577345
-0.12802090910146793,0.229242332468556,2.5448086274585062
-0.8267064561332839,0.838149699389311,2.4292777212380408
-1.2035266296461054,1.1707882910371508,2.4119749987313064
-1.764882980274462,1.646762216298419,2.4079481480650253
-2.358656737550703,2.122408961612166,2.421906859838776
-2.710909402349827,2.430941799831111,2.419633721710184
-3.3354441601767637,3.0570141917685287,2.455456236213287
-3.9308156736169857,3.6294284020747916,2.4594030124263373
-4.533212247852363,4.153400252551164,2.4385048850804925
-4.899206441566188,4.505102752888446,2.113941444686313
-5.2386458035297805,5.300178785140682,1.986757750104288
-5.566973670981477,6.097237988265331,1.997087187711637
-5.754730008131221,6.459394419476128,1.974754266683676
-6.1006293029668095,7.326478451600725,1.9890155227357909
-6.390185216226532,8.160522524912308,1.986504094106409
-6.561195878003236,8.611304157903511,1.9747400391126
-6.926257776090375,9.471860688929885,1.9613272340729893
-7.303769895192608,10.354497068759848,1.9579294423527003
-7.527921940694484,10.74457308148271,1.9470774784527336
-7.8450767969979145,11.491880137236025,1.3436403809486368
-7.122371957484874,12.108879675263621,0.7044946730078783
-6.532329987725563,12.741998639933998,0.7322811568023058
-6.144450581205373,12.987529794110133,0.7269225350936059
-5.553108052001431,13.556029237532055,0.7307182746828205
-4.917371124305501,14.028465563306767,0.7481638108358135
-4.637994447040906,14.263218418814109,0.7615307618623848
-3.9882730937576247,14.855409247457096,0.7818133009085386
-3.3264211281831257,15.441417823432223,0.7718882675550454
-2.964617575888348,15.777867708874881,0.7770135376568996
-2.3584743543613675,16.445941756932704,0.7884432924180595
-1.7255488552054095,17.036281099425864,0.7912694929774782
-1.3985752143422348,17.432979056052947,0.1505078952669554
-0.5835509449128338,17.397726581723834,-0.16483772759417237
0.3143606277602887,17.213821533654816,-0.15854226961453177
0.6794073454800148,17.169122727607444,-0.15129065334057312
1.562030272451088,17.02038013131069,-0.13493793669977983
2.436404429215737,16.873314200937724,-0.1525511923064995
3.2930099005262377,16.74790322832373,-0.16706395282235098
3.6844751565637233,16.65868355449514,-0.16676756809310378
4.434107151370291,16.50835629403272,-0.18082037512307636
5.24627179657914,16.293935959937553,-0.18285683219802662
5.742139484887051,16.165963209752054,-0.18143348847989094
6.580773408378823,15.976689082222862,-0.18431866381165918
7.492128154260598,15.819404643643045,-0.3587859791606234
7.799710235961311,15.491789319718626,-0.7191172081115424
8.464146494381856,14.945531305351098,-0.7349794879738547
9.183723938584965,14.375944774852892,-0.743701136537068
9.493632705929164,14.067451044854023,-0.7654164021643561
10.119046585663606,13.428931185854223,-0.7625879196018523
10.797575728185349,12.769165299220516,-0.776809808784864
11.463470377314707,12.204178193395068,-0.7607107793762218
11.799136445397913,11.895464008356564,-0.7510658052992216
12.399381895541662,11.355813898238079,-0.7265581480651586
12.999759260158765,10.850770422274582,-0.7069575372114545
13.349946922829771,10.575260739087067,-0.7141867569227953
13.975271730446956,10.015473259444597,-0.7252173472815713
