x,y,theta
0.08,-0.05,0.09208078200000003
0.90125330251908,0.04751833287792078,0.10864449899999995
1.3856274149011736,0.11057701858422167,0.11670185899999996
2.1881674070630446,0.18543621091385754,0.09575977800000013
3.0481600211037723,0.33619733774180705,0.09091876100000018
3.4316864762469206,0.30042396605075433,0.07805449700000011
4.2580066642601935,0.34445189031877843,0.10205051300000001
5.112600226799735,0.459416456461839,0.0873332539999998
6.036758412640302,0.4890578724723203,0.07054113399999995
6.541453255182926,0.4929549683683983,0.16087296400000017
7.429963808224535,0.6804264407931446,0.29611809700000036
8.200145938375899,1.0289655891818785,0.3945020330000002
8.651332869554988,1.260862283348103,0.37566076000000015
9.484988914466031,1.552167286231375,0.39387351100000023
10.230354751016007,1.8515058937890205,0.4217929850000002
10.657301337077097,2.0055713689099677,0.39150624200000017
11.596765482429838,2.35037229229568,0.3783956180000003
12.473917635958097,2.7056826886873444,0.3611606930000004
12.934527180325272,2.969307577846311,0.3542549000000004
13.741279160989137,3.2771970305621636,0.6217498920000004
14.304239880202813,3.983820022576486,0.8432513570000002
14.804265934314014,4.546422714693938,0.8340330490000003
15.135732193977692,4.890007020933615,0.7999455770000004
15.826357996301452,5.605063028742107,0.7848302020000002
16.51438287212022,6.3433061984766805,0.7980513300000003
16.74226856329907,6.683017919130022,0.8195166800000004
17.29879499062965,7.314805266446772,0.8105452960000004
17.906569089008507,7.914756554639212,0.7798348060000002
18.19571432931896,8.217749635372053,1.1208579820000004
18.300848592499293,8.932937873100887,1.607656542
18.066590934943946,9.737217991581744,1.8784482150000006
17.917107137224647,10.243384992847423,1.855410182
17.686521604291556,11.0898497010662,1.8468215509999997
17.436853639383674,12.001453072577348,1.821635573
17.252610270305322,12.376685097524874,1.8204945979999998
17.02820777527447,13.312525706100091,1.83071919
16.80547185531295,14.08132049614603,1.8472432149999998
16.567777886408,14.951655665275963,1.8477009960000004
16.42724243596919,15.372884548615955,2.417996154
15.543848134501728,15.832121788198908,2.681661869
14.73359726359764,16.252049512908204,2.6750900929999997
14.335069372375818,16.44520499505989,2.685727604
13.554676897807461,16.878622574821083,2.697844508
12.757437670544096,17.283114699941905,2.737974975
12.35720216903646,17.52316337672283,2.7491470089999996
11.615576476865817,17.885607909741896,2.7834033750000007
10.781141197491468,18.22669359523893,2.7794697730000006
10.39435654139018,18.41980593218958,2.78254617
9.593468954181033,18.69867231805447,-3.089730800179586
8.716840869228397,18.2890893689486,-2.690319221179586
7.844740824332337,17.94027194210456,-2.695505117179586
7.425736660846671,17.742161057824475,-2.716380774179586
6.673338608034209,17.389117176903476,-2.681746616179586
5.887194501894407,17.0213001089522,-2.697182250179586
5.4241391143303,16.890778633834532,-2.681271696179586
4.610748641297642,16.54289500847497,-2.692934029179586
3.7425772156382484,16.178153913838635,-2.694969975179586
3.21633321276944,15.980954893691212,-2.559606603179586
2.596958157368471,15.529039165017858,-2.394534792179586
2.0253023971531827,14.933040386136135,-2.2977335011795863
1.8371138150038142,14.728900829545065,-2.3178571321795864
1.2720621570299455,14.123228316694068,-2.3029230351795866
0.6175526664228225,13.426784822445532,-2.3181224951795865
-0.021978992963343044,12.789109529428606,-2.3493781351795864
-0.2751941022836295,12.578058995574901,-2.3239505841795864
-0.9072665380571767,11.950688205165378,-2.3226151181795864
-1.5106373996518985,11.209852089758803,-2.2997509551795865
-1.8486043337843912,10.818311957007635,-2.3107509461795863
-2.470537021203294,10.116585794623635,-2.1764098831795864
-2.8811397014740847,9.328643800478382,-1.9037101301795865
-2.8432218478412015,9.185661854011316,-1.8123020441795865
-2.931765601283159,8.491812689724608,-1.8161121541795866
-3.1308807507623353,7.583725974003324,-1.6822133751795867
-3.010108703247532,6.97714477660599,-1.6610119521795867
-3.1629009024184795,6.002777560855862,-1.6088578981795867
-3.2938475574662585,4.908116780388335,-1.6106994281795868
-3.3675751973352606,4.089636303830673,-1.6102577611795867
-3.5597253182225934,3.450879894709005,-0.9318758761795869
-2.7253376966880976,2.901994628729685,-0.661339854179587
-2.2784900657325435,2.5167900101321505,-0.5428675161795868
-1.9834148123621513,2.2280377396706887,-0.5974710751795866
-1.2546402176999851,1.5793346703520825,-0.5662235131795867
-0.4986439546593626,1.4559783802253947,-0.6057766671795868
-0.33357489828521286,1.2182784113661123,-0.47808455717958687
0.05175890017851329,0.8404869881625197,-0.321795716179587
1.1322431077507054,0.654071818677853,-0.2179324081795868
1.7395326501576258,0.5225182443316893,-0.16129137317958664
2.4547422926324303,0.4489763992415527,-0.1916944801795868
3.1245139061735894,0.22200215258996697,-0.1220745531795866
3.928421706140324,0.07963970061726133,-0.09870207117958651
4.348290443936868,0.04396776660728432,-0.10083144417958634
5.225496114215437,-0.03365455615634865,-0.09279435017958626
6.076853962864507,-0.13348892929692321,-0.10464992017958608
6.4690496587276645,-0.16661908435717554,0.36395107182041375
7.227442595721494,0.3300280031577463,0.5926698938204136
7.9737025970566595,0.842226116373059,0.5640708908204135
8.346739148325154,1.0615578089133813,0.5610316418204135
9.156387159979484,1.5444008704438539,0.5594512328204138
9.862099650834175,2.0504484654537256,0.5664917908204137
10.1722349502618,2.2690156760622475,0.5545410938204136
11.021895417628714,2.8060853911790615,0.5339506978204138
11.758564054902719,3.228737721150447,0.5511187588204138
12.033924187961116,3.374914683988018,0.864628390820414
12.444279884172342,4.097487560057349,1.0201801658204142
12.980534949903184,4.938492768078787,1.0263973798204145
13.482564640148492,5.718290619706204,1.0336618388204144
13.655501704524434,6.045786484203435,1.0441787988204139
14.0935968602085,6.785900504124965,1.0561867858204135
14.525037802094522,7.563227787612545,1.0545771248204137
14.74364054614451,8.023979476288334,1.0643188888204147
15.229055014585938,8.80453705624117,1.065135391820414
15.665845139710155,9.607192470708572,1.071624130820414
15.855118781688988,9.966341171323476,1.2345105768204139
16.093880444237882,10.890531465964866,1.5120809318204138
16.039352467283926,11.779468914078063,1.6514677028204137
16.024282088462357,12.304446954547915,1.6367786548204135
15.962977342318968,13.184220437101313,1.6021505098204134
15.928696442642723,14.130155715804625,1.6015333838204135
15.85598534260602,15.080306493532968,1.604358532820413
15.804577792006805,15.548628769044738,1.630218051820414
15.74687185614206,16.277320958574602,1.6078441118204134
15.702628703849415,17.127251247968648,1.6091233758204133
15.66923423423632,17.575222398005426,1.9465244908204138
15.293836754313075,18.22643987891756,2.381570914820413
14.608463550405592,18.619866222716293,2.641822744820413
14.205167664757663,18.923116106607583,2.658211369820413
13.460417138245795,19.310910367548924,2.639902589820413
12.667324464530227,19.768775147279467,2.631542571820413
12.28412051438135,20.07133332512421,2.646640433820414
11.570991165945246,20.524046393996297,2.650763243820414
10.817835689341944,20.904543494431508,2.639098325820413
10.220681032225816,21.223396273013265,2.6352372718204133
9.778788848295525,21.422797879346923,2.6315028438204138
9.028592125741037,21.837956178740075,2.8361873488204132
8.192621462307649,21.896082663767704,-3.065913858359173
7.705101209814893,21.74751725743982,-2.8096278193591733
6.954716135415546,21.443545659716435,-2.7950976923591733
6.112767204818195,21.09736611138635,-2.7706688803591732
5.660519222890127,20.91036870540265,-2.8040191703591733
4.819996181247293,20.65957788807655,-2.833057518359173
3.9595263625314296,20.39493456349373,-2.842547646359173
3.574432873878032,20.291679899671422,-2.855261370359173
2.7644593411645833,20.048202509328043,-2.863069173359173
1.9899626770980114,19.82621074762286,-2.8673590123591732
1.1067651642537344,19.624227283861156,-2.868946329359173
0.8115682000058577,19.552457438260817,-2.509436779359173
0.1881359099301237,18.998603242585872,-1.988531503359173
0.00043402657443881125,18.07244282184367,-1.7166924823591732
-0.08549069237639323,17.644608003930827,-1.7010975783591735
-0.17945198406171464,16.74898056268386,-1.692741704359174
-0.3033556172590014,15.907166978336416,-1.6653022493591738
-0.3228502166172292,15.52749059775919,-1.645312663359174
-0.3895624465017636,14.605720107114122,-1.6778876193591739
-0.4481057329942833,13.727389616912898,-1.675960601359174
-0.47816225390298883,13.285947800662845,-1.692252608359174
-0.624501182157483,12.343506677679578,-1.435058877359174
-0.3275922066721768,11.684057341841138,-0.7754664473591739
0.47363281559861314,11.1849552140758,-0.5226986703591741
0.8288332039045404,10.968680173541108,-0.48764868135917405
1.583454066677123,10.535879371392905,-0.49978813735917393
2.372766766753014,10.0754782582154,-0.490954495359174
2.7388482231339055,9.82973539109843,-0.5049744883591738
3.5977424429398552,9.400537176532394,-0.5049431813591738
4.406439675955011,8.93533474240707,-0.1511940063591739
4.791189854445591,9.236947737920373,0.6383058806408259
5.400916944150919,9.730973410387213,0.6374910256408262
6.078123871737565,10.22420414693496,0.6647260996408262
6.384629966943449,10.49150017275098,0.6588924646408261
7.0829503042849975,11.056035387139847,0.647061978640826
7.758596108335847,11.61330615186229,0.6765592946408261
8.097977443822565,11.87028426540233,0.6748028646408262
8.801622596473274,12.388165066483001,0.6915535176408261
9.54667208300446,13.011792094503614,0.22597838964082584
10.34563573054171,12.790157712970133,-0.24904243935917414
10.778459823141588,12.658777008074066,-0.27241064835917417
11.621580961081792,12.439555699274322,-0.24208852535917424
12.658417740634349,12.348172557772767,-0.1825777793591743
12.783682539198102,12.298995994819622,-0.15612481835917436
13.741374099361034,12.233139258088732,-0.2036452673591742
14.354096789582975,12.132225587196107,-0.7044372863591741
14.18405674529065,11.572892739817275,-1.8031232493591742
13.859130736648742,10.535055238449088,-1.7076012423591742
13.646893879608958,9.809187604039963,-1.6128809193591742
13.647195568243706,9.408400976535233,-1.7024509723591743
13.551868258659727,8.69966055981634,-1.5946709033591744
13.51406462985246,7.833522233999551,-1.4760756983591743
13.634712501732292,6.903839938135225,-1.5080347053591743
13.685305927274673,6.565019123197916,-1.7742662943591743
13.221427640268654,5.49954473134087,-1.9132162033591742
12.934016130828038,4.420388400195643,-1.9903155893591742
12.64704318573593,3.709833316039734,-1.9018699043591742
12.412524171444383,3.2511968819510475,-1.8769509023591742
12.263626639276099,2.304920824168139,-1.8613564603591746
12.015942857064255,1.889914057805927,-1.7704554403591746
11.68838337421114,1.0664395492902334,-1.8395270123591745
11.454587991323905,0.15933583987228725,-1.8119798093591746
11.306801362608963,-0.320726692766397,-1.8472708793591746
11.104596567199543,-1.1131871675448461,-2.0531681493591742
10.493686743345275,-1.8471705560260185,-2.253576842359174
9.958936455110091,-2.540023625182274,-2.210644137359174
9.727242749807385,-2.7971629788672594,-2.201480820359174
9.168753478189862,-3.5295186168106643,-2.194919247359174
8.684399224724995,-4.3248881454859704,-2.2013647563591743
8.409318474190778,-4.708041704799769,-2.3569012053591742
7.83875072011101,-5.275602651806136,-2.5584145203591744
7.00927626633504,-5.708520153348965,-2.6650682293591745
6.568459890385131,-5.93587253375217,-2.6734001783591745
5.929127186213197,-6.28678723049563,-2.6694920783591747
5.281366971467633,-6.673162361920812,-2.6486835523591745
4.87732907316157,-6.896363044105425,-2.6447605943591745
4.082755258926662,-7.268167212941953,-2.6039311773591747
3.3167942465035645,-7.641389687118565,-2.599644583359175
2.625921430416517,-8.015253013464557,-2.6216301043591748
2.176999043750258,-8.225101422476845,-2.945994409359175
1.3165035225931996,-8.262279915504944,-3.070553479359175
0.4560841578185324,-8.291086837473351,-3.055179700359175
0.029796943011802874,-8.338882888487989,-3.077027297359175
-0.9255982278854041,-8.367647933497423,-3.0598216863591747
-1.829530255464565,-8.360047108530566,-3.0578589383591748
-2.3325447461808806,-8.369298659098128,-3.064281473359175
-3.2860104575366993,-8.433415896814495,-3.0705892913591746
-4.241749671788785,-8.50359415686734,-3.0743877863591744
-4.681772500866179,-8.582727436900376,-3.0843658093591744
-5.4902733576759415,-8.63852173949509,2.5985927878204125
-5.8597176664624175,-7.74461619788164,1.963661288820413
-6.2842788242370835,-6.969293519399622,1.9969736598204122
-6.40786964934241,-6.514560490085446,2.0009846168204124
-6.785035965673661,-5.771991233158058,2.013907828820413
-7.064282809025716,-5.017579214854655,2.040113483820413
-7.216314430648165,-4.644492936840691,2.064574187820413
-7.619315437417818,-3.8218037686881003,2.099440468820413
-8.002785368604206,-3.029726840122325,2.0805177718204133
-8.211068206830562,-2.5994091407705806,2.078873957820413
-8.671108160486483,-1.8441067933461965,2.087460106820414
-9.046687493086157,-1.0827572515913193,2.091344574820413
-9.318243243198134,-0.6684449655374552,1.4538255348204139
-9.07535059466253,0.06872851143915147,1.1313828738204137
-8.668722082740397,0.846014170985962,1.1315159548204132
-8.538584956526662,1.1472543961451682,1.1328554578204137
-8.161139148700114,1.9117251614004056,1.1442149388204133
-7.783517302791274,2.6666329667036215,1.1225174248204137
-7.409640404037594,3.4346314978445625,1.1074599368204137
-7.20575191647481,3.768358700707329,1.1083369378204129
-6.839231493421587,4.427015044493714,1.096986125820413
-6.395055643501457,5.128248977828031,1.1000343898204132
-6.1271488103394605,5.553033929691243,1.1079924098204135
-5.724747868793586,6.263409993311604,1.1123188938204134
-5.332118427240595,7.076892428833544,0.9416806098204127
-4.940825344413692,7.266766303070859,0.5862175868204131
-4.245543790804631,7.750593230637947,0.5770679198204132
-3.516769433441297,8.286619995124425,0.5770017778204131
-3.1466137021367206,8.507078896395091,0.552155343820413
-2.3772710592949426,8.949210515167431,0.5518681998204129
-1.5673628692418655,9.437143513391577,0.5347318458204131
-0.8508758702742151,9.934814210539603,0.548096099820413
-0.46610061587377744,10.177921966910343,0.5551020158204127
0.21135373933114499,10.613696060468616,0.5786138628204127
0.8558405128839818,11.057950945366148,0.5975954608204126
1.213296266104887,11.320778167482738,0.5899582038204128
1.9176013459334944,11.773982285170542,0.5789276128204128
